FREQUENCY (MHz)),LOSS (dB)
700,-1.82
750,-1.28
800,-2.036
850,-1.409
900,-2.124
950,-1.96
1000,-2.194
1250,-1.7
1500,-2.412
1750,-1.96
2000,-2.655
2250,-2.224
2500,-2.85
3000,-3.04
3500,-4.74
4000,-4.55
4500,-4.99
5000,-5.39
5500,-4.137
6000,-5.4
